Frequency (Hz)	Level (dB)
0.244141	-81.990227
0.488281	-81.681831
0.732422	-81.604996
0.976562	-81.390495
1.220703	-80.770332
1.464844	-80.238594
1.708984	-79.899506
1.953125	-79.415833
2.197266	-78.684837
2.441406	-78.113251
2.685547	-77.541191
2.929688	-77.059662
3.173828	-76.397163
3.417969	-75.693672
3.662109	-75.173187
3.906250	-74.547935
4.150391	-74.088081
4.394531	-73.634476
4.638672	-72.870705
4.882812	-72.323746
5.126953	-71.942284
5.371094	-71.614922
5.615234	-70.951057
5.859375	-70.516685
6.103516	-69.783669
6.347656	-69.599480
6.591797	-69.344742
6.835938	-68.731827
7.080078	-68.268608
7.324219	-67.897095
7.568359	-67.523781
7.812500	-67.220955
8.056641	-66.835632
8.300781	-66.451706
8.544922	-66.322823
8.789062	-66.178833
9.033203	-65.724022
9.277344	-65.207161
9.521484	-64.694054
9.765625	-64.175110
10.009766	-64.176399
10.253906	-64.100555
10.498047	-63.926907
10.742188	-63.627674
10.986328	-63.223251
11.230469	-63.219170
11.474609	-63.289154
11.718750	-62.602650
11.962891	-62.368095
12.207031	-62.109222
12.451172	-61.665474
12.695312	-61.615387
12.939453	-61.075386
13.183594	-60.968346
13.427734	-60.926804
13.671875	-61.027752
13.916016	-60.825878
14.160156	-61.008488
14.404297	-61.146202
14.648438	-60.663765
14.892578	-60.010792
15.136719	-60.004738
15.380859	-60.041748
15.625000	-60.018929
15.869141	-59.456608
16.113281	-59.566658
16.357422	-59.755390
16.601562	-59.476814
16.845703	-58.929810
17.089844	-58.008205
17.333984	-57.926826
17.578125	-58.300915
17.822266	-58.057945
18.066406	-58.761097
18.310547	-58.303070
18.554688	-57.912422
18.798828	-58.047047
19.042969	-57.753078
19.287109	-57.712463
19.531250	-57.851437
19.775391	-56.689735
20.019531	-57.003284
20.263672	-57.305843
20.507812	-57.005058
20.751953	-56.880539
20.996094	-56.596905
21.240234	-56.652218
21.484375	-56.867435
21.728516	-55.963387
21.972656	-56.129688
22.216797	-56.134987
22.460938	-55.590164
22.705078	-55.427097
22.949219	-56.327515
23.193359	-55.582527
23.437500	-56.047447
23.681641	-55.496479
23.925781	-55.491650
24.169922	-54.960159
24.414062	-55.932819
24.658203	-56.156723
24.902344	-56.082039
25.146484	-55.526558
25.390625	-55.081978
25.634766	-55.584587
25.878906	-55.400963
26.123047	-54.389034
26.367188	-55.365883
26.611328	-55.675037
26.855469	-56.373344
27.099609	-54.793774
27.343750	-55.362053
27.587891	-54.482529
27.832031	-53.379448
28.076172	-55.646637
28.320312	-55.196022
28.564453	-55.051155
28.808594	-54.961914
29.052734	-54.687733
29.296875	-54.585854
29.541016	-55.147129
29.785156	-54.823158
30.029297	-53.609200
30.273438	-54.984859
30.517578	-55.548805
30.761719	-54.407413
31.005859	-53.823441
31.250000	-53.981083
31.494141	-53.214073
31.738281	-54.278427
31.982422	-54.001522
32.226562	-54.088329
32.470703	-50.989689
32.714844	-54.151936
32.958984	-53.711834
33.203125	-54.480530
33.447266	-54.642773
33.691406	-54.858639
33.935547	-55.336571
34.179688	-53.354259
34.423828	-54.329060
34.667969	-52.784935
34.912109	-52.629322
35.156250	-52.175709
35.400391	-52.894135
35.644531	-54.446999
35.888672	-53.806740
36.132812	-54.146587
36.376953	-52.242062
36.621094	-53.424355
36.865234	-54.620403
37.109375	-52.684723
37.353516	-53.579510
37.597656	-53.427265
37.841797	-51.961208
38.085938	-52.781815
38.330078	-53.539062
38.574219	-55.786602
38.818359	-53.825378
39.062500	-53.840000
39.306641	-54.205536
39.550781	-54.146564
39.794922	-52.616432
40.039062	-53.252644
40.283203	-53.269016
40.527344	-53.483566
40.771484	-55.438374
41.015625	-53.101105
41.259766	-53.122475
41.503906	-52.544689
41.748047	-53.620720
41.992188	-52.871414
42.236328	-53.371613
42.480469	-52.095383
42.724609	-53.993721
42.968750	-53.976334
43.212891	-54.011044
43.457031	-52.263958
43.701172	-51.498722
43.945312	-51.669182
44.189453	-51.311638
44.433594	-52.419159
44.677734	-54.616634
44.921875	-52.908649
45.166016	-53.280941
45.410156	-52.876389
45.654297	-52.911514
45.898438	-53.991875
46.142578	-53.200600
46.386719	-53.600029
46.630859	-53.159760
46.875000	-52.906040
47.119141	-54.488499
47.363281	-53.964252
47.607422	-51.915085
47.851562	-53.108086
48.095703	-56.038506
48.339844	-53.740761
48.583984	-54.038101
48.828125	-52.919998
49.072266	-53.281239
49.316406	-50.516361
49.560547	-52.731453
49.804688	-53.268326
50.048828	-52.531021
50.292969	-53.376343
50.537109	-53.374603
50.781250	-56.169651
51.025391	-53.614246
51.269531	-55.658222
51.513672	-54.680729
51.757812	-50.831532
52.001953	-55.045139
52.246094	-51.398727
52.490234	-51.712898
52.734375	-53.926666
52.978516	-53.870510
53.222656	-54.061153
53.466797	-54.709488
53.710938	-52.366333
53.955078	-50.646145
54.199219	-55.377853
54.443359	-54.076721
54.687500	-53.862080
54.931641	-54.594482
55.175781	-53.868397
55.419922	-53.365250
55.664062	-53.516022
55.908203	-54.316051
56.152344	-53.122169
56.396484	-53.774559
56.640625	-52.820946
56.884766	-51.536785
57.128906	-54.809269
57.373047	-51.887318
57.617188	-55.336174
57.861328	-53.208607
58.105469	-54.139000
58.349609	-53.472305
58.593750	-53.406780
58.837891	-53.330639
59.082031	-53.989872
59.326172	-56.761520
59.570312	-53.452492
59.814453	-52.813442
60.058594	-53.785431
60.302734	-52.237995
60.546875	-52.981754
60.791016	-54.356056
61.035156	-53.262466
61.279297	-54.464005
61.523438	-54.081161
61.767578	-56.528126
62.011719	-54.236748
62.255859	-52.307045
62.500000	-55.592361
62.744141	-52.809006
62.988281	-52.609402
63.232422	-60.224400
63.476562	-53.825569
63.720703	-54.736401
63.964844	-52.729607
64.208984	-57.229641
64.453125	-52.540569
64.697266	-55.425800
64.941406	-54.185940
65.185547	-56.035046
65.429688	-56.067608
65.673828	-57.158039
65.917969	-53.398521
66.162109	-52.120552
66.406250	-58.403049
66.650391	-54.285233
66.894531	-53.821472
67.138672	-54.050339
67.382812	-57.797874
67.626953	-55.903828
67.871094	-55.884216
68.115234	-52.647156
68.359375	-52.685345
68.603516	-53.640774
68.847656	-55.124424
69.091797	-56.283901
69.335938	-56.067661
69.580078	-55.484974
69.824219	-55.198048
70.068359	-52.890526
70.312500	-53.420506
70.556641	-54.271584
70.800781	-54.575146
71.044922	-56.743729
71.289062	-55.323486
71.533203	-54.799774
71.777344	-51.459145
72.021484	-57.966496
72.265625	-57.698151
72.509766	-55.261223
72.753906	-56.062092
72.998047	-54.509632
73.242188	-55.997963
73.486328	-56.581238
73.730469	-52.346664
73.974609	-53.450993
74.218750	-55.438126
74.462891	-52.986992
74.707031	-51.152771
74.951172	-52.783886
75.195312	-59.648693
75.439453	-57.673847
75.683594	-53.585819
75.927734	-57.520611
76.171875	-57.930569
76.416016	-52.595951
76.660156	-54.946362
76.904297	-56.059292
77.148438	-59.996689
77.392578	-60.327950
77.636719	-59.228088
77.880859	-56.738827
78.125000	-54.558647
78.369141	-55.249920
78.613281	-57.002575
78.857422	-57.662781
79.101562	-55.959000
79.345703	-56.436943
79.589844	-55.318947
79.833984	-53.805035
80.078125	-55.524208
80.322266	-57.131302
80.566406	-57.825748
80.810547	-56.731724
81.054688	-56.089325
81.298828	-56.040218
81.542969	-55.966709
81.787109	-53.670906
82.031250	-57.060329
82.275391	-55.935917
82.519531	-54.155056
82.763672	-52.790325
83.007812	-55.741142
83.251953	-52.743385
83.496094	-58.252533
83.740234	-56.974094
83.984375	-57.411175
84.228516	-60.444195
84.472656	-59.507465
84.716797	-56.268257
84.960938	-57.770157
85.205078	-61.957008
85.449219	-57.687191
85.693359	-57.650562
85.937500	-58.555698
86.181641	-57.618736
86.425781	-55.091167
86.669922	-53.006924
86.914062	-54.352528
87.158203	-55.144482
87.402344	-56.716431
87.646484	-58.755440
87.890625	-55.812466
88.134766	-56.559898
88.378906	-55.105556
88.623047	-58.280617
88.867188	-57.255184
89.111328	-56.178288
89.355469	-57.923603
89.599609	-56.135330
89.843750	-55.551262
90.087891	-55.411747
90.332031	-55.316212
90.576172	-53.226700
90.820312	-60.318985
91.064453	-60.154129
91.308594	-59.593243
91.552734	-58.480545
91.796875	-55.653561
92.041016	-54.246986
92.285156	-57.842155
92.529297	-52.656845
92.773438	-57.874825
93.017578	-60.728882
93.261719	-55.381241
93.505859	-56.025970
93.750000	-59.998272
93.994141	-62.064411
94.238281	-57.630852
94.482422	-54.479931
94.726562	-56.597343
94.970703	-56.063629
95.214844	-57.561886
95.458984	-61.501244
95.703125	-58.255741
95.947266	-58.346519
96.191406	-61.848885
96.435547	-54.561203
96.679688	-59.082157
96.923828	-58.911926
97.167969	-58.143200
97.412109	-59.312363
97.656250	-56.132675
97.900391	-60.253010
98.144531	-58.337795
98.388672	-59.120636
98.632812	-59.925865
98.876953	-59.493000
99.121094	-59.384884
99.365234	-57.611752
99.609375	-53.869175
99.853516	-61.422577
100.097656	-60.108223
100.341797	-62.276070
100.585938	-59.226440
100.830078	-54.791283
101.074219	-60.412968
101.318359	-63.588196
101.562500	-61.076958
101.806641	-59.429077
102.050781	-59.921318
102.294922	-60.932446
102.539062	-61.314644
102.783203	-56.244556
103.027344	-58.129986
103.271484	-61.075798
103.515625	-58.498684
103.759766	-56.652042
104.003906	-59.387394
104.248047	-57.507721
104.492188	-57.263992
104.736328	-57.758537
104.980469	-59.421535
105.224609	-56.599865
105.468750	-57.081337
105.712891	-55.662922
105.957031	-59.472553
106.201172	-61.966129
106.445312	-59.831463
106.689453	-57.911652
106.933594	-61.334240
107.177734	-60.330769
107.421875	-59.408905
107.666016	-55.577286
107.910156	-58.752914
108.154297	-58.306328
108.398438	-57.801205
108.642578	-61.487175
108.886719	-61.924606
109.130859	-59.906689
109.375000	-55.899780
109.619141	-57.542847
109.863281	-59.894863
110.107422	-60.245857
110.351562	-59.692974
110.595703	-58.470806
110.839844	-58.163101
111.083984	-62.302322
111.328125	-59.207283
111.572266	-58.061523
111.816406	-57.594250
112.060547	-56.723354
112.304688	-60.880688
112.548828	-57.954865
112.792969	-61.013992
113.037109	-59.756138
113.281250	-58.259430
113.525391	-62.248882
113.769531	-57.458908
114.013672	-59.813442
114.257812	-61.349174
114.501953	-56.517956
114.746094	-62.063522
114.990234	-57.699680
115.234375	-58.082935
115.478516	-58.564167
115.722656	-60.256336
115.966797	-61.282299
116.210938	-64.971527
116.455078	-59.649216
116.699219	-59.896099
116.943359	-58.408237
117.187500	-61.613548
117.431641	-60.832569
117.675781	-57.850033
117.919922	-61.920639
118.164062	-59.253078
118.408203	-62.200939
118.652344	-58.963173
118.896484	-57.940945
119.140625	-59.844257
119.384766	-60.022194
119.628906	-59.597385
119.873047	-60.105465
120.117188	-56.849785
120.361328	-59.582893
120.605469	-61.817635
120.849609	-61.738319
121.093750	-59.924110
121.337891	-62.182690
121.582031	-59.109531
121.826172	-61.656162
122.070312	-60.455090
122.314453	-61.644684
122.558594	-60.722885
122.802734	-60.845371
123.046875	-58.540436
123.291016	-60.854622
123.535156	-63.310730
123.779297	-57.705605
124.023438	-60.277699
124.267578	-60.141911
124.511719	-59.503922
124.755859	-61.420326
125.000000	-58.596684
125.244141	-58.536106
125.488281	-60.492046
125.732422	-60.940250
125.976562	-60.941105
126.220703	-58.765293
126.464844	-60.322605
126.708984	-60.644131
126.953125	-59.775551
127.197266	-57.353813
127.441406	-59.478592
127.685547	-59.126820
127.929688	-57.586304
128.173828	-58.455326
128.417969	-59.721947
128.662109	-63.134026
128.906250	-58.667095
129.150391	-59.302029
129.394531	-59.614460
129.638672	-61.936035
129.882812	-60.435917
130.126953	-61.005917
130.371094	-61.288185
130.615234	-60.604870
130.859375	-60.230476
131.103516	-61.820759
131.347656	-59.002026
131.591797	-65.939430
131.835938	-63.245007
132.080078	-62.263763
132.324219	-55.789406
132.568359	-57.911846
132.812500	-60.469318
133.056641	-57.391228
133.300781	-56.695812
133.544922	-58.920841
133.789062	-59.169819
134.033203	-58.857201
134.277344	-67.948532
134.521484	-61.909821
134.765625	-60.037312
135.009766	-61.415165
135.253906	-61.341812
135.498047	-62.087906
135.742188	-60.689159
135.986328	-58.850315
136.230469	-59.793251
136.474609	-57.927219
136.718750	-61.008427
136.962891	-59.337593
137.207031	-58.024651
137.451172	-58.890717
137.695312	-56.023476
137.939453	-60.379520
138.183594	-58.799545
138.427734	-57.676212
138.671875	-57.102337
138.916016	-58.593315
139.160156	-57.726532
139.404297	-62.841465
139.648438	-59.466049
139.892578	-61.443176
140.136719	-59.070755
140.380859	-59.100174
140.625000	-57.457462
140.869141	-57.375614
141.113281	-59.476051
141.357422	-58.347565
141.601562	-59.203732
141.845703	-61.304111
142.089844	-58.397198
142.333984	-57.390694
142.578125	-60.955051
142.822266	-61.907417
143.066406	-60.054802
143.310547	-58.503685
143.554688	-60.775959
143.798828	-59.591259
144.042969	-59.251423
144.287109	-64.848587
144.531250	-60.299694
144.775391	-62.040630
145.019531	-57.751781
145.263672	-58.532524
145.507812	-63.228638
145.751953	-59.574432
145.996094	-59.155796
146.240234	-58.481762
146.484375	-59.685833
146.728516	-59.111710
146.972656	-57.227024
147.216797	-58.017479
147.460938	-57.825836
147.705078	-59.053440
147.949219	-59.594433
148.193359	-59.412479
148.437500	-63.688705
148.681641	-59.319477
148.925781	-59.118462
149.169922	-64.226715
149.414062	-63.977154
149.658203	-57.006271
149.902344	-59.996307
150.146484	-58.117451
150.390625	-59.386021
150.634766	-59.359188
150.878906	-59.587814
151.123047	-59.785664
151.367188	-59.629528
151.611328	-60.479691
151.855469	-60.416191
152.099609	-63.056244
152.343750	-61.306725
152.587891	-61.790951
152.832031	-59.738125
153.076172	-57.430233
153.320312	-56.956039
153.564453	-59.726357
153.808594	-59.895004
154.052734	-58.701557
154.296875	-61.670990
154.541016	-59.288559
154.785156	-62.549202
155.029297	-61.312832
155.273438	-62.948322
155.517578	-62.036507
155.761719	-60.923157
156.005859	-61.358585
156.250000	-59.961582
156.494141	-60.799076
156.738281	-59.694397
156.982422	-61.437073
157.226562	-64.646194
157.470703	-61.602127
157.714844	-63.542572
157.958984	-61.765804
158.203125	-58.122574
158.447266	-59.525913
158.691406	-61.068344
158.935547	-57.385990
159.179688	-61.322063
159.423828	-60.546467
159.667969	-58.676552
159.912109	-62.704254
160.156250	-58.929260
160.400391	-63.466892
160.644531	-64.701126
160.888672	-59.144085
161.132812	-61.836433
161.376953	-59.599380
161.621094	-60.562160
161.865234	-58.673157
162.109375	-58.294937
162.353516	-62.555050
162.597656	-65.219826
162.841797	-63.070168
163.085938	-62.859783
163.330078	-60.880905
163.574219	-58.981987
163.818359	-61.935677
164.062500	-60.010918
164.306641	-61.971195
164.550781	-59.841446
164.794922	-58.917492
165.039062	-60.945732
165.283203	-59.830875
165.527344	-59.465218
165.771484	-55.634361
166.015625	-58.360191
166.259766	-58.678501
166.503906	-58.135815
166.748047	-59.538422
166.992188	-59.718330
167.236328	-60.768219
167.480469	-59.995174
167.724609	-57.804802
167.968750	-58.710968
168.212891	-57.253624
168.457031	-60.907993
168.701172	-58.450130
168.945312	-61.219906
169.189453	-63.528305
169.433594	-60.977367
169.677734	-58.387150
169.921875	-59.110958
170.166016	-61.173981
170.410156	-61.481300
170.654297	-62.104919
170.898438	-60.637085
171.142578	-60.871380
171.386719	-59.374680
171.630859	-61.247238
171.875000	-63.664505
172.119141	-59.796074
172.363281	-61.878208
172.607422	-60.292564
172.851562	-62.364376
173.095703	-60.624542
173.339844	-63.591766
173.583984	-60.294636
173.828125	-61.749641
174.072266	-58.905865
174.316406	-58.307213
174.560547	-63.417187
174.804688	-60.868488
175.048828	-60.677422
175.292969	-62.720669
175.537109	-62.666237
175.781250	-60.257278
176.025391	-59.153973
176.269531	-61.739101
176.513672	-63.092670
176.757812	-61.101833
177.001953	-63.749725
177.246094	-62.273460
177.490234	-62.719501
177.734375	-63.223240
177.978516	-63.865646
178.222656	-64.314377
178.466797	-61.312740
178.710938	-60.706169
178.955078	-60.617279
179.199219	-59.853031
179.443359	-59.315491
179.687500	-59.088184
179.931641	-59.086132
180.175781	-59.926758
180.419922	-59.385986
180.664062	-64.468422
180.908203	-65.405441
181.152344	-64.024147
181.396484	-58.772755
181.640625	-57.854340
181.884766	-61.010593
182.128906	-60.950424
182.373047	-64.084976
182.617188	-62.591274
182.861328	-61.121113
183.105469	-59.143116
183.349609	-62.695782
183.593750	-63.126484
183.837891	-61.645885
184.082031	-64.635750
184.326172	-61.421837
184.570312	-62.045612
184.814453	-63.101109
185.058594	-62.265507
185.302734	-61.178192
185.546875	-59.756260
185.791016	-63.210510
186.035156	-68.480827
186.279297	-58.486912
186.523438	-61.346634
186.767578	-68.913666
187.011719	-68.402222
187.255859	-67.389008
187.500000	-61.269611
187.744141	-62.860287
187.988281	-64.559509
188.232422	-66.590431
188.476562	-61.134274
188.720703	-63.419445
188.964844	-62.654514
189.208984	-62.463383
189.453125	-60.308128
189.697266	-62.916824
189.941406	-60.202930
190.185547	-61.417595
190.429688	-60.788788
190.673828	-62.184505
190.917969	-62.358673
191.162109	-60.371571
191.406250	-63.722031
191.650391	-61.974106
191.894531	-64.469704
192.138672	-63.162697
192.382812	-66.326622
192.626953	-61.923031
192.871094	-67.148567
193.115234	-66.738525
193.359375	-66.982315
193.603516	-62.002010
193.847656	-61.045887
194.091797	-59.406841
194.335938	-65.511032
194.580078	-64.105476
194.824219	-63.813526
195.068359	-65.569206
195.312500	-64.135895
195.556641	-64.540413
195.800781	-62.690514
196.044922	-62.955681
196.289062	-62.111752
196.533203	-60.804611
196.777344	-65.370621
197.021484	-61.924042
197.265625	-63.588604
197.509766	-60.727081
197.753906	-61.416508
197.998047	-59.395760
198.242188	-70.705711
198.486328	-61.228771
198.730469	-63.267296
198.974609	-67.945518
199.218750	-68.276001
199.462891	-65.905960
199.707031	-65.529358
199.951172	-63.626743
200.195312	-64.701851
200.439453	-62.317802
200.683594	-61.707085
200.927734	-61.895264
201.171875	-66.195244
201.416016	-66.621262
201.660156	-66.152733
201.904297	-68.041229
202.148438	-65.417892
202.392578	-64.511063
202.636719	-64.896164
202.880859	-66.231079
203.125000	-64.368744
203.369141	-61.694202
203.613281	-66.125092
203.857422	-66.531029
204.101562	-62.303043
204.345703	-62.799015
204.589844	-64.473869
204.833984	-67.661598
205.078125	-66.623245
205.322266	-63.162254
205.566406	-66.468910
205.810547	-62.493725
206.054688	-63.908100
206.298828	-66.357704
206.542969	-66.517578
206.787109	-62.743996
207.031250	-64.279221
207.275391	-67.541466
207.519531	-67.678780
207.763672	-63.649338
208.007812	-62.933853
208.251953	-63.178402
208.496094	-65.101700
208.740234	-67.487152
208.984375	-66.543846
209.228516	-68.602188
209.472656	-69.144707
209.716797	-66.147903
209.960938	-67.426460
210.205078	-66.630951
210.449219	-67.369141
210.693359	-66.165726
210.937500	-64.945656
211.181641	-66.384216
211.425781	-71.697884
211.669922	-65.306908
211.914062	-62.181149
212.158203	-66.989220
212.402344	-65.201897
212.646484	-64.822067
212.890625	-61.945984
213.134766	-63.295364
213.378906	-68.239235
213.623047	-66.799675
213.867188	-69.062279
214.111328	-64.207504
214.355469	-65.072533
214.599609	-68.012802
214.843750	-67.507294
215.087891	-65.033279
215.332031	-63.530373
215.576172	-70.073753
215.820312	-65.795395
216.064453	-67.860756
216.308594	-72.640167
216.552734	-70.460983
